Time [s] - Voltage_0 (Filtered)	Amplitude [V] - Voltage_0 (Filtered)	
0	0.000237747	
0.0001	0.000237657	
0.0002	0.000237545	
0.0003	0.000237411	
0.0004	0.000237253	
0.0005	0.00023707	
0.0006	0.000236861	
0.0007	0.000236625	
0.0008	0.000236362	
0.0009	0.000236071	
0.001	0.000235753	
0.0011	0.000235406	
0.0012	0.000235032	
0.0013	0.00023463	
0.0014	0.000234201	
0.0015	0.000233745	
0.0016	0.000233265	
0.0017	0.000232759	
0.0018	0.000232231	
0.0019	0.00023168	
0.002	0.00023111	
0.0021	0.00023052	
0.0022	0.000229914	
0.0023	0.000229293	
0.0024	0.000228659	
0.0025	0.000228015	
0.0026	0.000227362	
0.0027	0.000226703	
0.0028	0.000226041	
0.0029	0.000225378	
0.003	0.000224716	
0.0031	0.000224058	
0.0032	0.000223407	
0.0033	0.000222764	
0.0034	0.000222134	
0.0035	0.000221518	
0.0036	0.000220919	
0.0037	0.000220339	
0.0038	0.000219781	
0.0039	0.000219247	
0.004	0.00021874	
0.0041	0.000218261	
0.0042	0.000217813	
0.0043	0.000217397	
0.0044	0.000217015	
0.0045	0.00021667	
0.0046	0.000216362	
0.0047	0.000216093	
0.0048	0.000215865	
0.0049	0.000215678	
0.005	0.000215533	
0.0051	0.000215431	
0.0052	0.000215373	
0.0053	0.000215359	
0.0054	0.000215388	
0.0055	0.000215463	
0.0056	0.000215581	
0.0057	0.000215743	
0.0058	0.000215949	
0.0059	0.000216197	
0.006	0.000216487	
0.0061	0.000216817	
0.0062	0.000217187	
0.0063	0.000217595	
0.0064	0.00021804	
0.0065	0.000218519	
0.0066	0.000219032	
0.0067	0.000219575	
0.0068	0.000220148	
0.0069	0.000220746	
0.007	0.000221369	
0.0071	0.000222013	
0.0072	0.000222676	
0.0073	0.000223355	
0.0074	0.000224047	
0.0075	0.000224749	
0.0076	0.000225458	
0.0077	0.000226171	
0.0078	0.000226884	
0.0079	0.000227595	
0.008	0.000228301	
0.0081	0.000228997	
0.0082	0.000229681	
0.0083	0.000230349	
0.0084	0.000230998	
0.0085	0.000231624	
0.0086	0.000232226	
0.0087	0.000232798	
0.0088	0.000233339	
0.0089	0.000233844	
0.009	0.000234312	
0.0091	0.00023474	
0.0092	0.000235124	
0.0093	0.000235462	
0.0094	0.000235751	
0.0095	0.00023599	
0.0096	0.000236176	
0.0097	0.000236307	
0.0098	0.000236382	
0.0099	0.000236399	
0.01	0.000236356	
0.0101	0.000236253	
0.0102	0.000236088	
0.0103	0.000235861	
0.0104	0.000235572	
0.0105	0.000235221	
0.0106	0.000234807	
0.0107	0.000234331	
0.0108	0.000233793	
0.0109	0.000233195	
0.011	0.000232538	
0.0111	0.000231823	
0.0112	0.000231052	
0.0113	0.000230227	
0.0114	0.00022935	
0.0115	0.000228424	
0.0116	0.000227451	
0.0117	0.000226435	
0.0118	0.000225379	
0.0119	0.000224285	
0.012	0.000223159	
0.0121	0.000222004	
0.0122	0.000220824	
0.0123	0.000219624	
0.0124	0.000218408	
0.0125	0.00021718	
0.0126	0.000215946	
0.0127	0.00021471	
0.0128	0.000213478	
0.0129	0.000212254	
0.013	0.000211045	
0.0131	0.000209854	
0.0132	0.000208689	
0.0133	0.000207553	
0.0134	0.000206453	
0.0135	0.000205394	
0.0136	0.000204381	
0.0137	0.00020342	
0.0138	0.000202515	
0.0139	0.000201672	
0.014	0.000200896	
0.0141	0.000200192	
0.0142	0.000199565	
0.0143	0.000199019	
0.0144	0.000198558	
0.0145	0.000198187	
0.0146	0.00019791	
0.0147	0.000197731	
0.0148	0.000197652	
0.0149	0.000197678	
0.015	0.00019781	
0.0151	0.000198052	
0.0152	0.000198406	
0.0153	0.000198873	
0.0154	0.000199456	
0.0155	0.000200155	
0.0156	0.000200971	
0.0157	0.000201905	
0.0158	0.000202957	
0.0159	0.000204126	
0.016	0.000205411	
0.0161	0.000206812	
0.0162	0.000208327	
0.0163	0.000209953	
0.0164	0.000211689	
0.0165	0.000213532	
0.0166	0.000215478	
0.0167	0.000217523	
0.0168	0.000219665	
0.0169	0.000221897	
0.017	0.000224216	
0.0171	0.000226616	
0.0172	0.000229092	
0.0173	0.000231638	
0.0174	0.000234247	
0.0175	0.000236913	
0.0176	0.00023963	
0.0177	0.000242389	
0.0178	0.000245185	
0.0179	0.000248008	
0.018	0.000250852	
0.0181	0.000253709	
0.0182	0.00025657	
0.0183	0.000259427	
0.0184	0.000262272	
0.0185	0.000265097	
0.0186	0.000267892	
0.0187	0.00027065	
0.0188	0.000273362	
0.0189	0.00027602	
0.019	0.000278615	
0.0191	0.00028114	
0.0192	0.000283586	
0.0193	0.000285946	
0.0194	0.000288211	
0.0195	0.000290375	
0.0196	0.00029243	
0.0197	0.00029437	
0.0198	0.000296187	
0.0199	0.000297876	
0.02	0.000299431	
0.0201	0.000300847	
0.0202	0.000302118	
0.0203	0.00030324	
0.0204	0.000304208	
0.0205	0.00030502	
0.0206	0.000305672	
0.0207	0.000306162	
0.0208	0.000306487	
0.0209	0.000306645	
0.021	0.000306636	
0.0211	0.00030646	
0.0212	0.000306115	
0.0213	0.000305604	
0.0214	0.000304926	
0.0215	0.000304084	
0.0216	0.000303081	
0.0217	0.000301917	
0.0218	0.000300598	
0.0219	0.000299127	
0.022	0.000297507	
0.0221	0.000295745	
0.0222	0.000293845	
0.0223	0.000291813	
0.0224	0.000289655	
0.0225	0.000287377	
0.0226	0.000284987	
0.0227	0.000282493	
0.0228	0.0002799	
0.0229	0.000277219	
0.023	0.000274456	
0.0231	0.00027162	
0.0232	0.00026872	
0.0233	0.000265765	
0.0234	0.000262763	
0.0235	0.000259724	
0.0236	0.000256658	
0.0237	0.000253572	
0.0238	0.000250477	
0.0239	0.000247381	
0.024	0.000244294	
0.0241	0.000241225	
0.0242	0.000238183	
0.0243	0.000235176	
0.0244	0.000232212	
0.0245	0.000229302	
0.0246	0.000226451	
0.0247	0.000223669	
0.0248	0.000220962	
0.0249	0.000218338	
0.025	0.000215804	
0.0251	0.000213366	
0.0252	0.00021103	
0.0253	0.000208802	
0.0254	0.000206686	
0.0255	0.000204688	
0.0256	0.000202812	
0.0257	0.000201062	
0.0258	0.00019944	
0.0259	0.000197951	
0.026	0.000196595	
0.0261	0.000195375	
0.0262	0.000194293	
0.0263	0.000193349	
0.0264	0.000192543	
0.0265	0.000191875	
0.0266	0.000191345	
0.0267	0.000190952	
0.0268	0.000190694	
0.0269	0.000190569	
0.027	0.000190574	
0.0271	0.000190708	
0.0272	0.000190966	
0.0273	0.000191344	
0.0274	0.00019184	
0.0275	0.000192449	
0.0276	0.000193166	
0.0277	0.000193986	
0.0278	0.000194903	
0.0279	0.000195914	
0.028	0.000197011	
0.0281	0.000198189	
0.0282	0.000199442	
0.0283	0.000200764	
0.0284	0.000202148	
0.0285	0.000203588	
0.0286	0.000205077	
0.0287	0.00020661	
0.0288	0.000208178	
0.0289	0.000209777	
0.029	0.000211398	
0.0291	0.000213036	
0.0292	0.000214684	
0.0293	0.000216335	
0.0294	0.000217983	
0.0295	0.000219623	
0.0296	0.000221248	
0.0297	0.000222851	
0.0298	0.000224428	
0.0299	0.000225973	
0.03	0.000227479	
0.0301	0.000228943	
0.0302	0.000230359	
0.0303	0.000231723	
0.0304	0.000233029	
0.0305	0.000234275	
0.0306	0.000235455	
0.0307	0.000236566	
0.0308	0.000237605	
0.0309	0.000238568	
0.031	0.000239453	
0.0311	0.000240257	
0.0312	0.000240978	
0.0313	0.000241613	
0.0314	0.000242162	
0.0315	0.000242623	
0.0316	0.000242994	
0.0317	0.000243274	
0.0318	0.000243464	
0.0319	0.000243563	
0.032	0.000243571	
0.0321	0.000243488	
0.0322	0.000243315	
0.0323	0.000243052	
0.0324	0.0002427	
0.0325	0.000242262	
0.0326	0.000241738	
0.0327	0.00024113	
0.0328	0.00024044	
0.0329	0.00023967	
0.033	0.000238824	
0.0331	0.000237902	
0.0332	0.000236908	
0.0333	0.000235845	
0.0334	0.000234716	
0.0335	0.000233525	
0.0336	0.000232274	
0.0337	0.000230967	
0.0338	0.000229607	
0.0339	0.000228199	
0.034	0.000226746	
0.0341	0.000225251	
0.0342	0.00022372	
0.0343	0.000222155	
0.0344	0.000220561	
0.0345	0.000218943	
0.0346	0.000217303	
0.0347	0.000215646	
0.0348	0.000213976	
0.0349	0.000212297	
0.035	0.000210614	
0.0351	0.000208931	
0.0352	0.00020725	
0.0353	0.000205577	
0.0354	0.000203916	
0.0355	0.000202269	
0.0356	0.000200642	
0.0357	0.000199037	
0.0358	0.000197459	
0.0359	0.000195911	
0.036	0.000194396	
0.0361	0.000192918	
0.0362	0.00019148	
0.0363	0.000190086	
0.0364	0.000188737	
0.0365	0.000187438	
0.0366	0.000186191	
0.0367	0.000184999	
0.0368	0.000183865	
0.0369	0.00018279	
0.037	0.000181776	
0.0371	0.000180827	
0.0372	0.000179945	
0.0373	0.00017913	
0.0374	0.000178384	
0.0375	0.00017771	
0.0376	0.000177108	
0.0377	0.00017658	
0.0378	0.000176127	
0.0379	0.000175749	
0.038	0.000175447	
0.0381	0.000175222	
0.0382	0.000175074	
0.0383	0.000175004	
0.0384	0.00017501	
0.0385	0.000175093	
0.0386	0.000175253	
0.0387	0.000175489	
0.0388	0.0001758	
0.0389	0.000176186	
0.039	0.000176645	
0.0391	0.000177175	
0.0392	0.000177776	
0.0393	0.000178446	
0.0394	0.000179182	
0.0395	0.000179984	
0.0396	0.000180848	
0.0397	0.000181772	
0.0398	0.000182754	
0.0399	0.000183792	
0.04	0.000184882	
0.0401	0.000186021	
0.0402	0.000187206	
0.0403	0.000188434	
0.0404	0.000189702	
0.0405	0.000191006	
0.0406	0.000192342	
0.0407	0.000193707	
0.0408	0.000195097	
0.0409	0.000196508	
0.041	0.000197936	
0.0411	0.000199377	
0.0412	0.000200828	
0.0413	0.000202283	
0.0414	0.000203739	
0.0415	0.000205191	
0.0416	0.000206636	
0.0417	0.000208069	
0.0418	0.000209487	
0.0419	0.000210884	
0.042	0.000212257	
0.0421	0.000213603	
0.0422	0.000214916	
0.0423	0.000216193	
0.0424	0.000217431	
0.0425	0.000218625	
0.0426	0.000219772	
0.0427	0.000220869	
0.0428	0.000221912	
0.0429	0.000222898	
0.043	0.000223825	
0.0431	0.000224688	
0.0432	0.000225486	
0.0433	0.000226215	
0.0434	0.000226875	
0.0435	0.000227461	
0.0436	0.000227974	
0.0437	0.00022841	
0.0438	0.000228768	
0.0439	0.000229048	
0.044	0.000229247	
0.0441	0.000229366	
0.0442	0.000229403	
0.0443	0.000229359	
0.0444	0.000229233	
0.0445	0.000229026	
0.0446	0.000228737	
0.0447	0.000228368	
0.0448	0.00022792	
0.0449	0.000227393	
0.045	0.00022679	
0.0451	0.000226111	
0.0452	0.000225359	
0.0453	0.000224537	
0.0454	0.000223645	
0.0455	0.000222688	
0.0456	0.000221667	
0.0457	0.000220587	
0.0458	0.00021945	
0.0459	0.000218259	
0.046	0.00021702	
0.0461	0.000215734	
0.0462	0.000214408	
0.0463	0.000213044	
0.0464	0.000211647	
0.0465	0.000210221	
0.0466	0.000208772	
0.0467	0.000207304	
0.0468	0.000205822	
0.0469	0.000204331	
0.047	0.000202836	
0.0471	0.000201341	
0.0472	0.000199853	
0.0473	0.000198376	
0.0474	0.000196915	
0.0475	0.000195476	
0.0476	0.000194063	
0.0477	0.000192682	
0.0478	0.000191338	
0.0479	0.000190035	
0.048	0.000188779	
0.0481	0.000187575	
0.0482	0.000186426	
0.0483	0.000185338	
0.0484	0.000184315	
0.0485	0.000183361	
0.0486	0.00018248	
0.0487	0.000181676	
0.0488	0.000180953	
0.0489	0.000180314	
0.049	0.000179763	
0.0491	0.000179301	
0.0492	0.000178933	
0.0493	0.00017866	
0.0494	0.000178485	
0.0495	0.000178409	
0.0496	0.000178435	
0.0497	0.000178563	
0.0498	0.000178794	
0.0499	0.00017913	
0.05	0.000179571	
0.0501	0.000180116	
0.0502	0.000180766	
0.0503	0.00018152	
0.0504	0.000182378	
0.0505	0.000183337	
0.0506	0.000184398	
0.0507	0.000185557	
0.0508	0.000186813	
0.0509	0.000188164	
0.051	0.000189608	
0.0511	0.00019114	
0.0512	0.000192758	
0.0513	0.000194459	
0.0514	0.000196239	
0.0515	0.000198093	
0.0516	0.000200019	
0.0517	0.000202011	
0.0518	0.000204066	
0.0519	0.000206177	
0.052	0.000208341	
0.0521	0.000210552	
0.0522	0.000212806	
0.0523	0.000215096	
0.0524	0.000217418	
0.0525	0.000219766	
0.0526	0.000222135	
0.0527	0.000224518	
0.0528	0.000226911	
0.0529	0.000229307	
0.053	0.000231701	
0.0531	0.000234088	
0.0532	0.000236462	
0.0533	0.000238816	
0.0534	0.000241147	
0.0535	0.000243448	
0.0536	0.000245715	
0.0537	0.000247941	
0.0538	0.000250123	
0.0539	0.000252255	
0.054	0.000254333	
0.0541	0.000256353	
0.0542	0.000258309	
0.0543	0.000260198	
0.0544	0.000262016	
0.0545	0.00026376	
0.0546	0.000265426	
0.0547	0.000267011	
0.0548	0.000268512	
0.0549	0.000269926	
0.055	0.000271251	
0.0551	0.000272485	
0.0552	0.000273627	
0.0553	0.000274674	
0.0554	0.000275625	
0.0555	0.00027648	
0.0556	0.000277237	
0.0557	0.000277896	
0.0558	0.000278458	
0.0559	0.000278921	
0.056	0.000279287	
0.0561	0.000279556	
0.0562	0.000279729	
0.0563	0.000279807	
0.0564	0.000279792	
0.0565	0.000279685	
0.0566	0.000279489	
0.0567	0.000279204	
0.0568	0.000278834	
0.0569	0.000278381	
0.057	0.000277848	
0.0571	0.000277238	
0.0572	0.000276553	
0.0573	0.000275797	
0.0574	0.000274974	
0.0575	0.000274087	
0.0576	0.000273139	
0.0577	0.000272135	
0.0578	0.000271077	
0.0579	0.000269971	
0.058	0.00026882	
0.0581	0.000267628	
0.0582	0.0002664	
0.0583	0.000265139	
0.0584	0.000263849	
0.0585	0.000262535	
0.0586	0.000261201	
0.0587	0.00025985	
0.0588	0.000258487	
0.0589	0.000257117	
0.059	0.000255741	
0.0591	0.000254366	
0.0592	0.000252993	
0.0593	0.000251628	
0.0594	0.000250273	
0.0595	0.000248931	
0.0596	0.000247606	
0.0597	0.000246302	
0.0598	0.00024502	
0.0599	0.000243764	
0.06	0.000242535	
0.0601	0.000241338	
0.0602	0.000240172	
0.0603	0.000239042	
0.0604	0.000237948	
0.0605	0.000236892	
0.0606	0.000235875	
0.0607	0.000234899	
0.0608	0.000233965	
0.0609	0.000233072	
0.061	0.000232223	
0.0611	0.000231416	
0.0612	0.000230653	
0.0613	0.000229933	
0.0614	0.000229255	
0.0615	0.00022862	
0.0616	0.000228027	
0.0617	0.000227474	
0.0618	0.000226961	
0.0619	0.000226486	
0.062	0.000226047	
0.0621	0.000225645	
0.0622	0.000225275	
0.0623	0.000224937	
0.0624	0.000224628	
0.0625	0.000224346	
0.0626	0.000224089	
0.0627	0.000223855	
0.0628	0.000223639	
0.0629	0.000223441	
0.063	0.000223256	
0.0631	0.000223083	
0.0632	0.000222918	
0.0633	0.000222757	
0.0634	0.000222599	
0.0635	0.00022244	
0.0636	0.000222277	
0.0637	0.000222107	
0.0638	0.000221927	
0.0639	0.000221733	
0.064	0.000221523	
0.0641	0.000221293	
0.0642	0.000221042	
0.0643	0.000220766	
0.0644	0.000220462	
0.0645	0.000220129	
0.0646	0.000219763	
0.0647	0.000219362	
0.0648	0.000218926	
0.0649	0.00021845	
0.065	0.000217935	
0.0651	0.000217377	
0.0652	0.000216778	
0.0653	0.000216134	
0.0654	0.000215446	
0.0655	0.000214713	
0.0656	0.000213934	
0.0657	0.000213111	
0.0658	0.000212243	
0.0659	0.00021133	
0.066	0.000210374	
0.0661	0.000209377	
0.0662	0.000208338	
0.0663	0.000207261	
0.0664	0.000206147	
0.0665	0.000204999	
0.0666	0.000203819	
0.0667	0.000202611	
0.0668	0.000201377	
0.0669	0.000200121	
0.067	0.000198847	
0.0671	0.000197559	
0.0672	0.00019626	
0.0673	0.000194956	
0.0674	0.000193651	
0.0675	0.00019235	
0.0676	0.000191057	
0.0677	0.000189778	
0.0678	0.000188519	
0.0679	0.000187284	
0.068	0.000186079	
0.0681	0.000184909	
0.0682	0.00018378	
0.0683	0.000182697	
0.0684	0.000181666	
0.0685	0.000180692	
0.0686	0.000179781	
0.0687	0.000178937	
0.0688	0.000178166	
0.0689	0.000177474	
0.069	0.000176864	
0.0691	0.000176341	
0.0692	0.00017591	
0.0693	0.000175574	
0.0694	0.000175338	
0.0695	0.000175205	
0.0696	0.000175178	
0.0697	0.000175261	
0.0698	0.000175455	
0.0699	0.000175762	
0.07	0.000176185	
0.0701	0.000176725	
0.0702	0.000177382	
0.0703	0.000178157	
0.0704	0.000179051	
0.0705	0.000180062	
0.0706	0.000181189	
0.0707	0.000182432	
0.0708	0.000183788	
0.0709	0.000185256	
0.071	0.000186832	
0.0711	0.000188514	
0.0712	0.000190297	
0.0713	0.000192178	
0.0714	0.000194152	
0.0715	0.000196215	
0.0716	0.000198361	
0.0717	0.000200584	
0.0718	0.000202879	
0.0719	0.000205239	
0.072	0.000207658	
0.0721	0.000210129	
0.0722	0.000212644	
0.0723	0.000215197	
0.0724	0.000217779	
0.0725	0.000220384	
0.0726	0.000223003	
0.0727	0.000225629	
0.0728	0.000228252	
0.0729	0.000230866	
0.073	0.000233462	
0.0731	0.000236033	
0.0732	0.000238569	
0.0733	0.000241064	
0.0734	0.00024351	
0.0735	0.000245899	
0.0736	0.000248223	
0.0737	0.000250476	
0.0738	0.00025265	
0.0739	0.000254739	
0.074	0.000256737	
0.0741	0.000258638	
0.0742	0.000260435	
0.0743	0.000262124	
0.0744	0.0002637	
0.0745	0.000265158	
0.0746	0.000266494	
0.0747	0.000267705	
0.0748	0.000268788	
0.0749	0.00026974	
0.075	0.000270559	
0.0751	0.000271242	
0.0752	0.00027179	
0.0753	0.000272202	
0.0754	0.000272476	
0.0755	0.000272615	
0.0756	0.000272617	
0.0757	0.000272486	
0.0758	0.000272221	
0.0759	0.000271827	
0.076	0.000271305	
0.0761	0.000270659	
0.0762	0.000269892	
0.0763	0.000269009	
0.0764	0.000268013	
0.0765	0.00026691	
0.0766	0.000265704	
0.0767	0.000264401	
0.0768	0.000263008	
0.0769	0.000261529	
0.077	0.000259971	
0.0771	0.00025834	
0.0772	0.000256645	
0.0773	0.00025489	
0.0774	0.000253084	
0.0775	0.000251233	
0.0776	0.000249345	
0.0777	0.000247427	
0.0778	0.000245486	
0.0779	0.000243529	
0.078	0.000241565	
0.0781	0.000239599	
0.0782	0.00023764	
0.0783	0.000235694	
0.0784	0.000233768	
0.0785	0.000231869	
0.0786	0.000230003	
0.0787	0.000228176	
0.0788	0.000226396	
0.0789	0.000224667	
0.079	0.000222995	
0.0791	0.000221385	
0.0792	0.000219843	
0.0793	0.000218372	
0.0794	0.000216977	
0.0795	0.000215663	
0.0796	0.000214432	
0.0797	0.000213288	
0.0798	0.000212234	
0.0799	0.000211271	
0.08	0.000210403	
0.0801	0.00020963	
0.0802	0.000208954	
0.0803	0.000208376	
0.0804	0.000207896	
0.0805	0.000207515	
0.0806	0.000207231	
0.0807	0.000207044	
0.0808	0.000206953	
0.0809	0.000206957	
0.081	0.000207054	
0.0811	0.000207241	
0.0812	0.000207516	
0.0813	0.000207877	
0.0814	0.00020832	
0.0815	0.000208843	
0.0816	0.00020944	
0.0817	0.000210109	
0.0818	0.000210845	
0.0819	0.000211644	
0.082	0.000212501	
0.0821	0.000213412	
0.0822	0.000214372	
0.0823	0.000215376	
0.0824	0.000216419	
0.0825	0.000217495	
0.0826	0.0002186	
0.0827	0.000219728	
0.0828	0.000220874	
0.0829	0.000222032	
0.083	0.000223198	
0.0831	0.000224365	
0.0832	0.00022553	
0.0833	0.000226686	
0.0834	0.000227829	
0.0835	0.000228954	
0.0836	0.000230056	
0.0837	0.000231131	
0.0838	0.000232174	
0.0839	0.00023318	
0.084	0.000234147	
0.0841	0.000235069	
0.0842	0.000235944	
0.0843	0.000236768	
0.0844	0.000237539	
0.0845	0.000238252	
0.0846	0.000238906	
0.0847	0.000239498	
0.0848	0.000240027	
0.0849	0.00024049	
0.085	0.000240886	
0.0851	0.000241215	
0.0852	0.000241474	
0.0853	0.000241665	
0.0854	0.000241785	
0.0855	0.000241836	
0.0856	0.000241818	
0.0857	0.000241731	
0.0858	0.000241577	
0.0859	0.000241356	
0.086	0.00024107	
0.0861	0.00024072	
0.0862	0.00024031	
0.0863	0.00023984	
0.0864	0.000239314	
0.0865	0.000238734	
0.0866	0.000238103	
0.0867	0.000237424	
0.0868	0.0002367	
0.0869	0.000235935	
0.087	0.000235133	
0.0871	0.000234296	
0.0872	0.00023343	
0.0873	0.000232538	
0.0874	0.000231624	
0.0875	0.000230692	
0.0876	0.000229746	
0.0877	0.000228791	
0.0878	0.000227831	
0.0879	0.00022687	
0.088	0.000225912	
0.0881	0.000224962	
0.0882	0.000224024	
0.0883	0.000223101	
0.0884	0.000222198	
0.0885	0.000221318	
0.0886	0.000220466	
0.0887	0.000219645	
0.0888	0.000218858	
0.0889	0.000218108	
0.089	0.000217399	
0.0891	0.000216733	
0.0892	0.000216114	
0.0893	0.000215543	
0.0894	0.000215023	
0.0895	0.000214556	
0.0896	0.000214143	
0.0897	0.000213786	
0.0898	0.000213486	
0.0899	0.000213244	
0.09	0.00021306	
0.0901	0.000212936	
0.0902	0.000212871	
0.0903	0.000212864	
0.0904	0.000212916	
0.0905	0.000213026	
0.0906	0.000213193	
0.0907	0.000213415	
0.0908	0.000213691	
0.0909	0.000214019	
0.091	0.000214398	
0.0911	0.000214825	
0.0912	0.000215298	
0.0913	0.000215814	
0.0914	0.00021637	
0.0915	0.000216964	
0.0916	0.000217592	
0.0917	0.000218252	
0.0918	0.000218939	
0.0919	0.000219651	
0.092	0.000220384	
0.0921	0.000221134	
0.0922	0.000221898	
0.0923	0.000222672	
0.0924	0.000223452	
0.0925	0.000224235	
0.0926	0.000225017	
0.0927	0.000225794	
0.0928	0.000226563	
0.0929	0.00022732	
0.093	0.000228062	
0.0931	0.000228786	
0.0932	0.000229488	
0.0933	0.000230166	
0.0934	0.000230815	
0.0935	0.000231435	
0.0936	0.000232021	
0.0937	0.000232572	
0.0938	0.000233086	
0.0939	0.00023356	
0.094	0.000233993	
0.0941	0.000234382	
0.0942	0.000234727	
0.0943	0.000235027	
0.0944	0.00023528	
0.0945	0.000235486	
0.0946	0.000235644	
0.0947	0.000235754	
0.0948	0.000235817	
0.0949	0.000235831	
0.095	0.000235799	
0.0951	0.000235719	
0.0952	0.000235594	
0.0953	0.000235425	
0.0954	0.000235211	
0.0955	0.000234956	
0.0956	0.000234661	
0.0957	0.000234328	
0.0958	0.000233958	
